###Consider the right boundary of PEOPT
###Consider the left boundary of C60
###Consider the right boundary of C60
###The vary thickness of C60
###Wavelength	20(nm)	40(nm)	
400	0.00722	0.00828
401	0.00724	0.00829
402	0.00726	0.00831
403	0.00727	0.00832
404	0.00728	0.00834
405	0.00730	0.00837
406	0.00735	0.00842
407	0.00738	0.00846
408	0.00742	0.00851
409	0.00745	0.00857
410	0.00750	0.00863
411	0.00753	0.00868
412	0.00757	0.00875
413	0.00761	0.00882
414	0.00763	0.00886
415	0.00766	0.00891
416	0.00768	0.00897
417	0.00771	0.00902
418	0.00774	0.00908
419	0.00777	0.00914
420	0.00779	0.00920
421	0.00781	0.00925
422	0.00783	0.00930
423	0.00783	0.00934
424	0.00783	0.00940
425	0.00785	0.00945
426	0.00785	0.00949
427	0.00785	0.00953
428	0.00785	0.00957
429	0.00784	0.00960
430	0.00783	0.00966
431	0.00783	0.00970
432	0.00782	0.00972
433	0.00780	0.00976
434	0.00777	0.00978
435	0.00775	0.00982
436	0.00774	0.00983
437	0.00773	0.00985
438	0.00771	0.00987
439	0.00769	0.00989
440	0.00766	0.00992
441	0.00764	0.00992
442	0.00763	0.00992
443	0.00761	0.00994
444	0.00759	0.00995
445	0.00756	0.00996
446	0.00754	0.00997
447	0.00752	0.00998
448	0.00750	0.00997
449	0.00747	0.00998
450	0.00745	0.00999
451	0.00743	0.00998
452	0.00740	0.00998
453	0.00737	0.00998
454	0.00734	0.00998
455	0.00732	0.00998
456	0.00729	0.00997
457	0.00725	0.00996
458	0.00722	0.00995
459	0.00718	0.00995
460	0.00714	0.00993
461	0.00711	0.00992
462	0.00708	0.00989
463	0.00705	0.00988
464	0.00702	0.00986
465	0.00699	0.00985
466	0.00695	0.00983
467	0.00691	0.00982
468	0.00687	0.00979
469	0.00684	0.00976
470	0.00681	0.00973
471	0.00679	0.00972
472	0.00675	0.00970
473	0.00672	0.00968
474	0.00668	0.00965
475	0.00664	0.00963
476	0.00661	0.00959
477	0.00657	0.00957
478	0.00653	0.00954
479	0.00648	0.00949
480	0.00645	0.00946
481	0.00640	0.00941
482	0.00636	0.00936
483	0.00632	0.00933
484	0.00629	0.00929
485	0.00625	0.00925
486	0.00620	0.00920
487	0.00615	0.00914
488	0.00612	0.00910
489	0.00607	0.00905
490	0.00602	0.00898
491	0.00598	0.00893
492	0.00594	0.00887
493	0.00589	0.00881
494	0.00583	0.00873
495	0.00578	0.00867
496	0.00573	0.00860
497	0.00567	0.00852
498	0.00562	0.00845
499	0.00557	0.00838
500	0.00551	0.00830
501	0.00546	0.00821
502	0.00540	0.00812
503	0.00534	0.00804
504	0.00528	0.00794
505	0.00522	0.00785
506	0.00516	0.00776
507	0.00509	0.00766
508	0.00502	0.00756
509	0.00495	0.00747
510	0.00489	0.00737
511	0.00482	0.00726
512	0.00476	0.00715
513	0.00469	0.00705
514	0.00462	0.00693
515	0.00455	0.00683
516	0.00448	0.00671
517	0.00441	0.00660
518	0.00433	0.00649
519	0.00425	0.00637
520	0.00418	0.00625
521	0.00410	0.00613
522	0.00403	0.00601
523	0.00395	0.00588
524	0.00387	0.00576
525	0.00379	0.00564
526	0.00372	0.00552
527	0.00364	0.00540
528	0.00356	0.00527
529	0.00348	0.00515
530	0.00340	0.00502
531	0.00332	0.00490
532	0.00324	0.00478
533	0.00316	0.00466
534	0.00309	0.00455
535	0.00301	0.00443
536	0.00294	0.00432
537	0.00287	0.00420
538	0.00279	0.00409
539	0.00272	0.00399
540	0.00266	0.00388
541	0.00259	0.00378
542	0.00252	0.00368
543	0.00245	0.00358
544	0.00239	0.00349
545	0.00233	0.00340
546	0.00226	0.00331
547	0.00220	0.00322
548	0.00215	0.00314
549	0.00209	0.00306
550	0.00204	0.00298
551	0.00199	0.00291
552	0.00194	0.00284
553	0.00189	0.00277
554	0.00185	0.00270
555	0.00180	0.00264
556	0.00176	0.00258
557	0.00172	0.00253
558	0.00168	0.00248
559	0.00164	0.00243
560	0.00161	0.00238
561	0.00157	0.00234
562	0.00154	0.00230
563	0.00151	0.00226
564	0.00149	0.00223
565	0.00146	0.00220
566	0.00143	0.00217
567	0.00141	0.00215
568	0.00139	0.00212
569	0.00137	0.00210
570	0.00135	0.00208
571	0.00133	0.00206
572	0.00131	0.00205
573	0.00130	0.00203
574	0.00128	0.00202
575	0.00127	0.00201
576	0.00126	0.00200
577	0.00124	0.00199
578	0.00123	0.00199
579	0.00122	0.00198
580	0.00121	0.00197
581	0.00120	0.00197
582	0.00120	0.00197
583	0.00119	0.00197
584	0.00118	0.00196
585	0.00117	0.00196
586	0.00116	0.00196
587	0.00115	0.00196
588	0.00114	0.00195
589	0.00114	0.00195
590	0.00112	0.00195
591	0.00112	0.00194
592	0.00111	0.00194
593	0.00110	0.00194
594	0.00109	0.00193
595	0.00108	0.00193
596	0.00106	0.00192
597	0.00105	0.00191
598	0.00104	0.00190
599	0.00103	0.00190
600	0.00102	0.00189
601	0.00101	0.00188
602	0.00100	0.00187
603	0.00098	0.00186
604	0.00097	0.00184
605	0.00095	0.00183
606	0.00094	0.00182
607	0.00093	0.00180
608	0.00091	0.00179
609	0.00090	0.00177
610	0.00088	0.00176
611	0.00087	0.00174
612	0.00085	0.00172
613	0.00084	0.00171
614	0.00082	0.00168
615	0.00081	0.00166
616	0.00079	0.00164
617	0.00077	0.00162
618	0.00076	0.00160
619	0.00075	0.00158
620	0.00073	0.00156
621	0.00071	0.00154
622	0.00070	0.00152
623	0.00069	0.00150
624	0.00067	0.00148
625	0.00066	0.00146
626	0.00064	0.00144
627	0.00063	0.00142
628	0.00062	0.00140
629	0.00060	0.00138
630	0.00059	0.00136
631	0.00058	0.00134
632	0.00057	0.00133
633	0.00056	0.00131
634	0.00055	0.00129
635	0.00054	0.00127
636	0.00052	0.00126
637	0.00051	0.00125
638	0.00050	0.00123
639	0.00049	0.00121
640	0.00048	0.00120
641	0.00047	0.00118
642	0.00047	0.00117
643	0.00046	0.00115
644	0.00045	0.00114
645	0.00044	0.00112
646	0.00043	0.00110
647	0.00042	0.00109
648	0.00041	0.00107
649	0.00040	0.00106
650	0.00040	0.00105
651	0.00039	0.00104
652	0.00038	0.00102
653	0.00037	0.00101
654	0.00036	0.00099
655	0.00036	0.00097
656	0.00035	0.00096
657	0.00034	0.00094
658	0.00033	0.00092
659	0.00032	0.00090
660	0.00031	0.00089
661	0.00031	0.00087
662	0.00030	0.00085
663	0.00029	0.00084
664	0.00028	0.00082
665	0.00028	0.00080
666	0.00027	0.00078
667	0.00026	0.00076
668	0.00025	0.00073
669	0.00024	0.00071
670	0.00023	0.00069
671	0.00022	0.00066
672	0.00021	0.00064
673	0.00020	0.00061
674	0.00019	0.00059
675	0.00019	0.00056
676	0.00018	0.00054
677	0.00017	0.00051
678	0.00016	0.00048
679	0.00015	0.00045
680	0.00014	0.00043
681	0.00013	0.00040
682	0.00012	0.00037
683	0.00011	0.00034
684	0.00010	0.00032
685	0.00009	0.00029
686	0.00009	0.00027
687	0.00008	0.00024
688	0.00007	0.00022
689	0.00006	0.00020
690	0.00006	0.00018
691	0.00005	0.00016
692	0.00004	0.00014
693	0.00004	0.00012
694	0.00003	0.00011
695	0.00003	0.00009
696	0.00002	0.00008
697	0.00002	0.00007
698	0.00002	0.00006
699	0.00002	0.00005
700	0.00001	0.00005
